radius (AU)              fd (alpha = 1e-5)        fd (alpha = 1e-4)        fd (alpha = 1e-3)        fd (alpha = 1e-2)

1.000000000000000000e+01 1.176445722229786835e-02 3.720247825587297188e-03 1.176445652582876113e-03 3.720247803562678189e-04
1.023531021899026250e+01 1.216354512059923502e-02 3.846450486210109890e-03 1.216354437577364320e-03 3.846450462656217329e-04
1.047615752789664612e+01 1.257477795211256813e-02 3.976493710915067481e-03 1.257477715539712234e-03 3.976493685720346822e-04
1.072267222010323096e+01 1.299847684369733435e-02 4.110479048850560965e-03 1.299847599127651812e-03 4.110479021894238591e-04
1.097498765493056183e+01 1.343497267267135600e-02 4.248511132523487797e-03 1.343497176042274211e-03 4.248511103675199890e-04
1.123324032978027631e+01 1.388460691122556621e-02 4.390697944825375752e-03 1.388460593469098732e-03 4.390697913944075197e-04
1.149756995397735615e+01 1.434773258748519437e-02 4.537151122945987276e-03 1.434773154183950411e-03 4.537151089879118914e-04
1.176811952434998432e+01 1.482471537713137000e-02 4.687986303573630532e-03 1.482471425714738163e-03 4.687986268155898092e-04
1.204503540258782301e+01 1.531593484084537750e-02 4.843323514207902025e-03 1.531593364085543111e-03 4.843323476260029859e-04
1.232846739442065953e+01 1.582178582428033983e-02 5.003287615868438204e-03 1.582178453813265235e-03 5.003287575195911876e-04
1.261856883066020352e+01 1.634268003879128447e-02 5.168008802964303532e-03 1.634267865980140039e-03 5.168008759355734085e-04
1.291549665014884063e+01 1.687904784278261572e-02 5.337623166603615125e-03 1.687904636368048371e-03 5.337623119829068650e-04
1.321941148466028793e+01 1.743134024524176789e-02 5.512273328164927350e-03 1.743133865810913424e-03 5.512273277973945337e-04
1.353047774579806806e+01 1.800003115482197089e-02 5.692109150517347602e-03 1.800002945102572140e-03 5.692109096636892166e-04
1.384886371393873183e+01 1.858561989971221212e-02 5.877288534870620494e-03 1.858561806982652253e-03 5.877288477002641856e-04
1.417474162926805548e+01 1.918863404544558782e-02 6.067978311842499653e-03 1.918863207916687809e-03 6.067978249661014649e-04
1.450828778495939453e+01 1.980963253980060415e-02 6.264355235959447391e-03 1.980963042584870607e-03 6.264355169107699945e-04
1.484968262254465010e+01 2.044920921591334567e-02 6.466607093434916138e-03 2.044920694192066662e-03 6.466607021521944250e-04
1.519911082952933867e+01 2.110799668674265966e-02 6.674933933702861637e-03 2.110799423912846241e-03 6.674933856299069277e-04
1.555676143930472222e+01 2.178667066597148386e-02 6.889549435801817397e-03 2.178666802979888854e-03 6.889549352434823533e-04
1.592282793341092173e+01 2.248595475231431051e-02 7.110682421300307254e-03 2.248595191112712829e-03 7.110682331449378474e-04
1.629750834620644184e+01 2.320662571595190002e-02 7.338578526006491951e-03 2.320662265158793605e-03 7.338578429097317906e-04
1.668100537200059108e+01 2.394951932738577025e-02 7.573502043207309443e-03 2.394951601976337899e-03 7.573501938604746070e-04
1.707352647470690599e+01 2.471553677032848478e-02 7.815737951592688013e-03 2.471553319720118901e-03 7.815737838593047552e-04
1.747528400007684013e+01 2.550565168123614807e-02 8.065594141340663714e-03 2.550564781791076277e-03 8.065594019162910340e-04
1.788649529057435217e+01 2.632091785868107686e-02 8.323403852022636523e-03 2.632091367769182760e-03 8.323403719797966725e-04
1.830738280295367915e+01 2.716247768583758201e-02 8.589528336012668130e-03 2.716247315657128233e-03 8.589528192772726087e-04
1.873817422860383886e+01 2.803157130883307535e-02 8.864359760919784254e-03 2.803156639709090178e-03 8.864359605582786215e-04
1.917910261672488659e+01 2.892954661247385331e-02 9.148324364169225370e-03 2.892954127996688000e-03 9.148324195523962685e-04
1.963040650040270307e+01 2.985787003279340157e-02 9.441885872206097832e-03 2.985786423655117754e-03 9.441885688893246389e-04
2.009233002565046888e+01 3.081813824286672512e-02 9.745549195847037424e-03 3.081813193455131342e-03 9.745548996337382534e-04
2.056512308348651530e+01 3.181209074430927514e-02 1.005986441202688653e-02 3.181208386940809294e-03 1.005986419459580297e-03
2.104904144512020636e+01 3.284162339169347661e-02 1.038543104055535821e-02 3.284161588857498204e-03 1.038543080325332818e-03
2.154434690031884614e+01 3.390880287076529498e-02 1.072290262248310963e-02 3.390879466956780389e-03 1.072290236309968604e-03
2.205130739903045622e+01 3.501588214372773622e-02 1.107299160427205505e-02 3.501587316504926883e-03 1.107299132029507293e-03
2.257019719633920474e+01 3.616531686601352075e-02 1.143647452916658237e-02 3.616530701936329553e-03 1.143647421773258269e-03
2.310129700083160387e+01 3.735978276894414557e-02 1.181419753398939461e-02 3.735977195090707179e-03 1.181419719182627039e-03
2.364489412645407285e+01 3.860219399157768100e-02 1.220708214608291417e-02 3.860218208363384168e-03 1.220708176944025874e-03
2.420128264794382034e+01 3.989572233309500449e-02 1.261613137132769520e-02 3.989570919902152291e-03 1.261613095589465784e-03
2.477076355991711409e+01 4.124381738453981178e-02 1.304243606021249224e-02 4.124380286730761069e-03 1.304243560101952084e-03
2.535364493970111255e+01 4.265022748600079405e-02 1.348718153490091956e-02 4.265021140405784138e-03 1.348718102620197765e-03
2.595024211399735847e+01 4.411902144288258609e-02 1.395165445630464074e-02 4.411900358569259203e-03 1.395165389143583753e-03
2.656087782946686815e+01 4.565461092333637089e-02 1.443724990651106856e-02 4.565459104600050853e-03 1.443724927772029303e-03
2.718588242732939975e+01 4.726177344887807358e-02 1.494547865873480791e-02 4.726175126564909589e-03 1.494547795697605827e-03
2.782559402207124322e+01 4.894567588243817213e-02 1.547797460449743673e-02 4.894565105886081180e-03 1.547797381918177050e-03
2.848035868435801987e+01 5.124755433378220398e-02 1.620589167027832941e-02 5.124752667667487049e-03 1.620589079529860099e-03
2.915053062825177221e+01 5.454858916463058843e-02 1.724976971912622892e-02 5.454855865065995173e-03 1.724976875376463183e-03
2.983647240283340452e+01 5.806560305798229987e-02 1.836194625282149342e-02 5.806556936852379572e-03 1.836194518699776467e-03
3.053855508833415655e+01 6.181293138688170180e-02 1.954695450335679208e-02 6.181289416503928102e-03 1.954695332577852194e-03
3.125715849688236858e+01 6.580587286688817372e-02 2.080963233695408768e-02 6.580583171255848136e-03 2.080963103496358095e-03
3.199267137797384564e+01 7.006075494379140900e-02 2.215514293128555481e-02 7.006070940804550243e-03 2.215514149067977605e-03
3.274549162877728037e+01 7.459500365347578044e-02 2.358899686687489228e-02 7.459495323216814439e-03 2.358899527170364892e-03
3.351602650938842487e+01 7.942721826149255759e-02 2.511707572994431245e-02 7.942716238795059086e-03 2.511707396227929549e-03
3.430469286314919231e+01 8.457725101111886190e-02 2.674565733067013618e-02 8.457718904782652800e-03 2.674565537034097155e-03
3.511191734215130822e+01 9.006629233141974500e-02 2.848144264799441772e-02 9.006622356049681644e-03 2.848144047229043962e-03
3.593813663804627367e+01 9.591696188105916510e-02 3.033158461981447576e-02 9.591688549337718667e-03 3.033158220313498989e-03
3.678379771828634404e+01 1.021534058295979625e-01 3.230371890557414555e-02 1.021533209123165128e-02 3.230371621903856214e-03
3.764935806792467332e+01 1.088014008057531373e-01 3.440599675706802058e-02 1.088013063280331323e-02 3.440599376806210714e-03
3.853528593710529293e+01 1.158884649717743798e-01 3.664712014263621365e-02 1.158883597683871280e-02 3.664711681429360605e-03
3.944206059437656364e+01 1.234439767148198253e-01 3.903637927997240936e-02 1.234438594673095864e-02 3.903637557057860943e-03
4.037017258596554115e+01 1.314993014801612015e-01 4.158369274348954620e-02 1.314991706951810710e-02 4.158368860579636159e-03
4.132012400115338835e+01 1.400879273072793973e-01 4.429965032365981020e-02 1.400877812916618767e-02 4.429964570409749593e-03
4.229242874389498752e+01 1.492456096688068723e-01 4.719555882800757773e-02 1.492454465008047348e-02 4.719555366577355554e-03
4.328761281083059487e+01 1.590105262536345154e-01 5.028349102655841479e-02 1.590103437497412259e-02 5.028348525256592753e-03
4.430621457583882261e+01 1.694234423799589051e-01 5.357633795854567504e-02 1.694232380565653326e-02 5.357633149421480064e-03
4.534878508128581842e+01 1.805278877714401320e-01 5.708786483221829633e-02 1.805276588004725569e-02 5.708785758806895864e-03
4.641588833612780007e+01 1.923703454803788182e-01 6.083277076557144086e-02 1.923700886379252351e-02 6.083276263959828262e-03
4.750810162102798273e+01 2.050004537960608553e-01 6.482675263300974322e-02 2.050001654027490752e-02 6.482674350879599583e-03
4.862601580065353346e+01 2.184712220344322275e-01 6.908657330127296325e-02 2.184708978862338891e-02 6.908656304579944597e-03
4.977023564332111505e+01 2.328392611673189838e-01 7.363013455755570980e-02 2.328388964550565446e-02 7.363012301865875554e-03
5.094138014816380178e+01 2.481650303157078297e-01 7.847655505372663765e-02 2.481646195313376088e-02 7.847654205712335101e-03
5.214008287999684654e+01 2.645131002025968292e-01 8.364625361296014472e-02 2.645126370299388449e-02 8.364623895879800750e-03
5.336699231206309690e+01 2.819524347367752815e-01 8.916103826908614027e-02 2.819519119239315141e-02 8.916102172790301567e-03
5.462277217684342645e+01 3.005566919800384262e-01 9.504420143457438519e-02 3.005561011902346466e-02 9.504418274257806290e-03
5.590810182512222326e+01 3.204045458371411192e-01 1.013206216205048138e-01 3.204038774740713275e-02 1.013206004740459763e-02
5.722367659350219782e+01 3.415800299006317431e-01 1.080168721611845378e-01 3.415792729036706138e-02 1.080168482102758162e-02
5.857020818056667366e+01 3.641729049818723807e-01 1.151613374274161883e-01 3.641720465856335825e-02 1.151613102681243658e-02
5.994842503189408944e+01 3.882790519659790052e-01 1.227843370459585914e-01 3.882780774175163124e-02 1.227843062114525666e-02
6.135907273413175744e+01 4.140008917416859169e-01 1.309182586785739566e-01 4.139997839674427332e-02 1.309182236285798794e-02
6.280291441834253163e+01 4.414478340788691724e-01 1.395976999523517448e-01 4.414465732918104041e-02 1.395976600607293054e-02
6.428073117284321825e+01 4.707367574563359747e-01 1.488596201741066993e-01 4.707353206917935795e-02 1.488595747141509447e-02
6.579332246575683030e+01 5.019925219814973527e-01 1.587435025053538507e-01 5.019908825479622860e-02 1.587434506324139974e-02
6.734150657750821267e+01 5.353485176923383770e-01 1.692915273213757565e-01 5.353466445204532048e-02 1.692914680522506626e-02
6.892612104349699109e+01 5.709472506913150225e-01 1.805487575279829393e-01 5.709451075610078030e-02 1.805486897164569962e-02
7.054802310718645231e+01 6.089409697306668034e-01 1.925633366632160115e-01 6.089385143522156596e-02 1.925632589709821985e-02
7.220809018385463673e+01 6.494923360518517486e-01 2.053867006686058427e-01 6.494895189710453431e-02 2.053866115305894718e-02
7.390722033525779011e+01 6.927751394755750081e-01 2.190738042759233506e-01 6.927719027673742702e-02 2.190737018589501012e-02
7.564633275546290747e+01 7.389750639487092654e-01 2.336833630210067014e-01 7.389713396556504832e-02 2.336832451743628414e-02
7.742636826811269657e+01 7.882905059774204526e-01 2.492781119663703693e-01 7.882862142395720417e-02 2.492779761626048862e-02
7.924828983539177329e+01 8.409334496152983673e-01 2.659250822893897692e-01 8.409284964266923457e-02 2.659249255532918424e-02
8.111308307896872805e+01 8.971304019316712619e-01 2.836958969731050439e-01 8.971246764436470456e-02 2.836957157963321263e-02
8.302175681319744172e+01 9.571233931598005507e-01 3.026670869225795424e-01 9.571167644336982250e-02 3.026668771608591324e-02
8.497534359086446898e+01 1.021171046019432538e+00 3.229204289215443224e-01 1.021163359108444302e-01 3.229201856706179902e-02
8.697490026177834466e+01 1.089549719023193530e+00 3.445433069423802230e-01 1.089540790235720424e-01 3.445430243880277799e-02
8.902150854450388806e+01 1.162554728915453861e+00 3.676290984274486195e-01 1.162544340077455440e-01 3.676287696638517316e-02
9.111627561154895716e+01 1.240501657755277876e+00 3.922775872724794111e-01 1.240489549245955558e-01 3.922772040816860373e-02
9.326033468832198992e+01 1.323727750545543591e+00 4.185954053626826932e-01 1.323713612826743491e-01 4.185949579463963538e-02
9.545484566618341660e+01 1.412593409729891780e+00 4.466965046412909590e-01 1.412576873021311741e-01 4.466959812939291785e-02
9.770099572992256753e+01 1.507483793330265831e+00 4.767026618277729333e-01 1.507464414998304081e-01 4.767020485370992988e-02
1.000000000000000000e+02 1.608810523984738339e+00 5.087440180505136134e-01 1.608787773104372321e-01 5.087432980087751300e-02
