radius (AU)              fd (alpha = 1e-5)        fd (alpha = 1e-4)        fd (alpha = 1e-3)        fd (alpha = 1e-2)

1.000000000000000000e+01 4.253375333217671034e-05 1.334837081148149086e-05 4.217630623694594848e-06 1.333618056663323666e-06
1.023531021899026250e+01 4.451968211871584589e-05 1.397281251376297958e-05 4.414975639967460189e-06 1.396020114939302118e-06
1.047615752789664612e+01 4.659849815568157828e-05 1.462648400442126385e-05 4.621559070484274895e-06 1.461343459051698956e-06
1.072267222010323096e+01 4.877455339567238337e-05 1.531075463190745295e-05 4.837813708916440353e-06 1.529724942845052580e-06
1.097498765493056183e+01 5.105240410864679882e-05 1.602705796987182702e-05 5.064192645607970649e-06 1.601307838109328319e-06
1.123324032978027631e+01 5.343682050287755638e-05 1.677689483460374385e-05 5.301170220919987186e-06 1.676242136026056321e-06
1.149756995397735615e+01 5.593279680112436114e-05 1.756183644460153294e-05 5.549243023457233526e-06 1.754684862805626424e-06
1.176811952434998432e+01 5.854556179375142795e-05 1.838352772899425579e-05 5.808930935299195404e-06 1.836800410186134367e-06
1.204503540258782301e+01 6.128058989154681966e-05 1.924369079185579405e-05 6.080778226454293286e-06 1.922760881495856382e-06
1.232846739442065953e+01 6.414361270215135629e-05 2.014412853978780443e-05 6.365354700865264135e-06 2.012746454014903937e-06
1.261856883066020352e+01 6.714063115510644764e-05 2.108672848049860852e-05 6.663256896402128608e-06 2.106945758406679862e-06
1.291549665014884063e+01 7.027792820179693629e-05 2.207346670047428719e-05 6.975109341395573955e-06 2.205556276025237666e-06
1.321941148466028793e+01 7.356208211782357966e-05 2.310641203022053877e-05 7.301565870385107521e-06 2.308784754945753147e-06
1.353047774579806806e+01 7.699998043668863554e-05 2.418773040596733763e-05 7.643311001883203518e-06 2.416847645601740067e-06
1.384886371393873183e+01 8.059883454509371924e-05 2.531968943713951874e-05 8.001061381090197918e-06 2.529971556957955798e-06
1.417474162926805548e+01 8.436619497163295306e-05 2.650466318935240878e-05 8.375567290634210459e-06 2.648393734190442076e-06
1.450828778495939453e+01 8.830996740222802461e-05 2.774513719315158697e-05 8.767614232557902152e-06 2.772362558891878517e-06
1.484968262254465010e+01 9.243842945729254781e-05 2.904371368920623671e-05 9.178024584922203174e-06 2.902138072868875981e-06
1.519911082952933867e+01 9.676024826735074417e-05 3.040311712117716719e-05 9.607659336569650217e-06 3.037992526648571605e-06
1.555676143930472222e+01 1.012844988855994994e-04 3.182619988801869054e-05 1.005741990374258567e-05 3.180210953865230480e-06
1.592282793341092173e+01 1.060206835779424652e-04 3.331594836803543130e-05 1.052825003244153844e-05 3.329091772753548286e-06
1.629750834620644184e+01 1.109787520328598477e-04 3.487548922760731930e-05 1.102113779058755404e-05 3.484947416032724620e-06
1.668100537200059108e+01 1.161691225357432898e-04 3.650809602811566564e-05 1.153711765424761984e-05 3.648104990529307877e-06
1.707352647470690599e+01 1.216027041544869356e-04 3.821719614524210794e-05 1.207727269238665107e-05 3.818906967947532081e-06
1.747528400007684013e+01 1.272909199854868893e-04 4.000637801552351541e-05 1.264273685482158485e-05 3.997711908266226122e-06
1.788649529057435217e+01 1.332457315116847925e-04 4.187939872571659112e-05 1.323469736827742900e-05 4.184895217310424300e-06
1.830738280295367915e+01 1.394796641268978687e-04 4.384019196131407298e-05 1.385439724568003355e-05 4.380849940120277776e-06
1.873817422860383886e+01 1.460058338834342771e-04 4.589287633132078963e-05 1.450313791406201318e-05 4.585987591817492881e-06
1.917910261672488659e+01 1.528379755229027331e-04 4.804176408722745924e-05 1.518228196672514015e-05 4.800739027750623502e-06
1.963040650040270307e+01 1.599904718531594550e-04 5.029137025498763621e-05 1.589325604556005782e-05 5.025555354786184898e-06
2.009233002565046888e+01 1.674783845376659626e-04 5.264642219970921158e-05 1.663755385971780725e-05 5.260908885701828460e-06
2.056512308348651530e+01 1.753174863668239061e-04 5.511186964372609875e-05 1.741673934711910485e-05 5.507294138730660255e-06
2.104904144512020636e+01 1.835242950845901314e-04 5.769289515971951155e-05 1.823244998560029953e-05 5.765228884406571200e-06
2.154434690031884614e+01 1.921161088474426576e-04 6.039492516159625631e-05 1.908640026082114721e-05 6.035255241959989239e-06
2.205130739903045622e+01 2.011110433968413974e-04 6.322364141696080564e-05 1.998038529840170282e-05 6.317940827624432770e-06
2.257019719633920474e+01 2.105280710306250676e-04 6.618499310614072784e-05 2.091628466811490069e-05 6.613879957326091946e-06
2.310129700083160387e+01 2.203870614633324460e-04 6.928520945396962887e-05 2.189606636833744634e-05 6.923694906347711508e-06
2.364489412645407285e+01 2.307088246702762818e-04 7.253081296179576722e-05 2.292179099935993789e-05 7.248037228682871868e-06
2.420128264794382034e+01 2.415151558153269843e-04 7.592863326852807937e-05 2.399561613455677565e-05 7.587589138927142974e-06
2.477076355991711409e+01 2.528288823678388145e-04 7.948582167094131760e-05 2.511980089888382479e-05 7.943064959689581241e-06
2.535364493970111255e+01 2.646739135198237971e-04 8.320986633494438435e-05 2.629671076458271189e-05 8.315212637651956621e-06
2.595024211399735847e+01 2.770752920209832945e-04 8.710860823107117415e-05 2.752882257448683865e-05 8.704815331554429538e-06
2.656087782946686815e+01 2.900592485553330087e-04 9.119025782908937662e-05 2.881872980380527306e-05 9.112693075540281222e-06
2.718588242732939975e+01 3.036532587905901685e-04 9.546341258835465285e-05 3.016914807179387243e-05 9.539704521467985809e-06
2.782559402207124322e+01 3.178861032387898843e-04 9.993707528230774716e-05 3.158292091527324880e-05 9.986748763959415155e-06
2.848035868435801987e+01 3.327879300746987594e-04 1.046206731975038434e-04 3.306302583653274749e-05 1.045476725214657021e-05
2.915053062825177221e+01 3.483903210672040902e-04 1.095240782494520199e-04 3.461258063876798940e-05 1.094474579226497276e-05
2.983647240283340452e+01 3.647263607880979149e-04 1.146576280597513657e-04 3.623485006283931186e-05 1.145771664544419735e-05
3.053855508833415655e+01 3.818307092725958915e-04 1.200321480411817087e-04 3.793325273979670609e-05 1.199476072525632113e-05
3.125715849688236858e+01 3.997396783166658868e-04 1.256589745397661414e-04 3.971136847434706286e-05 1.255700989980443632e-05
3.199267137797384564e+01 4.184913116076299463e-04 1.315499790852834802e-04 4.157294587513904487e-05 1.314564940336463893e-05
3.274549162877728037e+01 4.381254688972357472e-04 1.377175938043206384e-04 4.352191034854905168e-05 1.376192036283957426e-05
3.351602650938842487e+01 4.586839144395021329e-04 1.441748380526944936e-04 4.556237247344696465e-05 1.440712244453323623e-05
3.430469286314919231e+01 4.802104099305398830e-04 1.509353463269786418e-04 4.769863677527889180e-05 1.508261662703211323e-05
3.511191734215130822e+01 5.027508122032933865e-04 1.580133975179111457e-04 4.993521091870249532e-05 1.578982810624923023e-05
3.593813663804627367e+01 5.263531759474769861e-04 1.654239455717639734e-04 5.227681533895315111e-05 1.653024933899190329e-05
3.678379771828634404e+01 5.510678617436194160e-04 1.731826516290255018e-04 5.472839333308778865e-05 1.730544323171242179e-05
3.764935806792467332e+01 5.769476497214403492e-04 1.813059177136579008e-04 5.729512163335997939e-05 1.811704648144882654e-05
3.853528593710529293e+01 6.040478591742262562e-04 1.898109220496345070e-04 5.998242148596559818e-05 1.896677307626781105e-05
3.944206059437656364e+01 6.324264744868994840e-04 1.987156560859094749e-04 6.279597025962458138e-05 1.985641796291694948e-05
4.037017258596554115e+01 6.621442777622094274e-04 2.080389633150742101e-04 6.574171360968971095e-05 2.078786088974687591e-05
4.132012400115338835e+01 6.932649885595956957e-04 2.178005799756260459e-04 6.882587822464391963e-05 2.176307043336746306e-05
4.229242874389498752e+01 7.258554111955650874e-04 2.280211777326432096e-04 7.205498518328045320e-05 2.278410821791639960e-05
4.328761281083059487e+01 7.599855900904871299e-04 2.387224084368895841e-04 7.543586395221494332e-05 2.385313333624500276e-05
4.430621457583882261e+01 7.957289736890538591e-04 2.499269510679215530e-04 7.897566705486255422e-05 2.497240698280761383e-05
4.534878508128581842e+01 8.331625875274605237e-04 2.616585609726430743e-04 8.268188544457515359e-05 2.614429730848710038e-05
4.641588833612780007e+01 8.723672170722293097e-04 2.739421215173189401e-04 8.656236461626208491e-05 2.737128450812309773e-05
4.750810162102798273e+01 9.134276010137533808e-04 2.868036982775702855e-04 9.062532149254437194e-05 2.865596615202416393e-05
4.862601580065353346e+01 9.564326357631352865e-04 3.002705958984785615e-04 9.487936212231525847e-05 3.000106277330681244e-05
4.977023564332111505e+01 1.001475591974826732e-03 3.143714177646690254e-04 9.933350023146118564e-05 3.140942372348897783e-05
5.094138014816380178e+01 1.048654344001378374e-03 3.291361286288044946e-04 1.039971766675857262e-04 3.288403330937948450e-05
5.214008287999684654e+01 1.098071613281501697e-03 3.445961203561528517e-04 1.088802797826156148e-04 3.442801722495310215e-05
5.336699231206309690e+01 1.149835226771639320e-03 3.607842809528733863e-04 1.139931667994933164e-04 3.604464929258020074e-05
5.462277217684342645e+01 1.204058391654116511e-03 3.777350670565774414e-04 1.193466862114967022e-04 3.773735852868591464e-05
5.590810182512222326e+01 1.260859987697526222e-03 3.954845800796040717e-04 1.249522012652467162e-04 3.950973654968570792e-05
5.722367659350219782e+01 1.320364878807536160e-03 4.140706462084104561e-04 1.308216145811255877e-04 4.136554533480524129e-05
5.857020818056667366e+01 1.382704245493987343e-03 4.335329004769322052e-04 1.369673939676314045e-04 4.330872536324550812e-05
5.994842503189408944e+01 1.448015940197061244e-03 4.539128751473361098e-04 1.434025994891926017e-04 4.534340414401862122e-05
6.135907273413175744e+01 1.516444867666280659e-03 4.752540926492165190e-04 1.501409118501250252e-04 4.747390515769887967e-05
6.280291441834253163e+01 1.588143392877885800e-03 4.976021633476127633e-04 1.571966621607632500e-04 4.970475723030246592e-05
6.428073117284321825e+01 1.663271779315963561e-03 5.210048884319156423e-04 1.645848631554400622e-04 5.204070436052920184e-05
6.579332246575683030e+01 1.741998660839157729e-03 5.455123682419443744e-04 1.723212419357196600e-04 5.448671602266778587e-05
6.734150657750821267e+01 1.824501550820231948e-03 5.711771163748383378e-04 1.804222743164508088e-04 5.704799796860044239e-05
6.892612104349699109e+01 1.910967392790535952e-03 5.980541799472133702e-04 1.889052208565296061e-04 5.973000355353701418e-05
7.054802310718645231e+01 2.001593157464706500e-03 6.262012664220709861e-04 1.977881646609575689e-04 6.253844561133022799e-05
7.220809018385463673e+01 2.096586491779249811e-03 6.556788774499499716e-04 2.070900510458257128e-04 6.547930890662796645e-05
7.390722033525779011e+01 2.196166426476880550e-03 6.865504502192546366e-04 2.168307291632831613e-04 6.855886319240408686e-05
7.564633275546290747e+01 2.300564149834843052e-03 7.188825068639453529e-04 2.270309956894288285e-04 7.178367690297728760e-05
7.742636826811269657e+01 2.410023856405040486e-03 7.527448125367085588e-04 2.377126406844564462e-04 7.516063151413764683e-05
7.924828983539177329e+01 2.524803681149465767e-03 7.882105428269872618e-04 2.488984957413476048e-04 7.869693660365987024e-05
8.111308307896872805e+01 2.645176731169575791e-03 8.253564612850857211e-04 2.606124845469379105e-04 8.240014564722386570e-05
8.302175681319744172e+01 2.771432229408450892e-03 8.642631079099278354e-04 2.728796759877572128e-04 8.627817258661064166e-05
8.497534359086446898e+01 2.903876787329505091e-03 9.050149995709989891e-04 2.857263399419785735e-04 9.033930920898951191e-05
8.697490026177834466e+01 3.042835826753491867e-03 9.477008434688988887e-04 2.991800059094512783e-04 9.459224337824224721e-05
8.902150854450388806e+01 3.188655174876264386e-03 9.924137648955910253e-04 3.132695246426947110e-04 9.904607816131432135e-05
9.111627561154895716e+01 3.341702861183384367e-03 1.039251550745855538e-03 3.280251329553961139e-04 1.037103518952466063e-04
9.326033468832198992e+01 3.502371150685298223e-03 1.088316910452830728e-03 3.434785218986486266e-04 1.085950592426978509e-04
9.545484566618341660e+01 3.671078854911297932e-03 1.139717756291450416e-03 3.596629085122394652e-04 1.137106732867067900e-04
9.770099572992256753e+01 3.848273970722182469e-03 1.193567505315052801e-03 3.766131113769996715e-04 1.190681687182173679e-04
1.000000000000000000e+02 4.034436707658357012e-03 1.249985405580584207e-03 3.943656302160692003e-04 1.246790461730154064e-04
